Wavelength (nm),Transmittance(%),Std.Dev.
190,0.189694697383473,0.020155943333928
191,0.159030661517614,0.0160815328254537
192,0.119500097446408,0.0190921315654618
193,0.11601296616228,0.0212580122675288
194,0.0901320572546334,0.0123049554363589
195,0.110276348221213,0.0140436966738712
196,0.120562311766211,0.010320457589382
197,0.12160205388862,0.00792066937868085
198,0.124661324030025,0.0102329639812662
199,0.134110819891891,0.0140441937114215
200,0.134855599562275,0.00925732245196228
201,0.118346755678055,0.0109506688504301
202,0.129654965531479,0.0142506831295722
203,0.109823597864865,0.0141970179435448
204,0.110031919230488,0.0103166187218454
205,0.0958105568769109,0.0054132992929959
206,0.0935179145597167,0.00589903083426847
207,0.0947239892866055,0.00649218479840468
208,0.0902445473452678,0.00596358155853608
209,0.097544114117645,0.00542906742238379
210,0.104970815940896,0.00707675166797024
211,0.133827813640762,0.0055587681284929
212,0.206398626242796,0.00369318239818759
213,0.313063996690274,0.00440635355786546
214,0.455089473699285,0.00683509579230637
215,0.657119864716422,0.00773530420811921
216,0.927847000140027,0.00917225227431594
217,1.26578032616638,0.00828005911289986
218,1.65016325671772,0.0108482260478857
219,2.15221071137707,0.00842733166256154
220,2.75658579191153,0.00968323329219574
221,3.44638291929418,0.0115294116230545
222,4.22111096669145,0.0123168743570227
223,5.02191182877829,0.00964242125816806
224,5.87088347615165,0.00795583839583689
225,6.88409343156936,0.00759632508748257
226,8.12148681952777,0.00659601552082166
227,9.462606913175,0.00764919006580363
228,10.8549742014779,0.0117514267241397
229,12.1344644767069,0.00881182047954832
230,13.2865471260191,0.00666507303394359
231,14.3559367457053,0.00725568959812539
232,15.3551317691893,0.00695911049663639
233,16.3038543535677,0.0073039383762735
234,17.240386322066,0.00601222617182789
235,18.1207168016112,0.00731386066985468
236,18.9607657640996,0.00722841822999518
237,19.7783375696866,0.00633073842157399
238,20.5663884947967,0.00597966915083891
239,21.3646694770876,0.00491175892236623
240,22.1524513306376,0.00454094607220586
241,22.8828159798803,0.00600225446411187
242,23.6134480998374,0.00722826281571436
243,24.3143591433926,0.00726802332461123
244,25.0007497775751,0.00972187228321474
245,25.7079283869338,0.00804284095917211
246,26.3985646927431,0.00861479191616294
247,27.0585711232042,0.010282294645981
248,27.7314856743636,0.00871494179901435
249,28.4256911385402,0.00852261872874047
250,29.145785711633,0.00834161009912084
251,30.0212268565185,0.00945200798043637
252,30.9923713074806,0.00936564383546491
253,32.0897440317074,0.0106795529216914
254,33.2657601423708,0.0176575795040115
255,34.4528195579711,0.0120163715561371
256,35.577748057625,0.0141629734731779
257,36.5892927875197,0.0158709269598017
258,37.6003988242607,0.0197503394193387
259,38.5976801590108,0.0202042567726806
260,39.5843221537074,0.0241898333272082
261,40.6274425363087,0.015229564535787
262,41.5829750688495,0.0106640604433591
263,42.5350537936575,0.0132019707500682
264,43.4884900186013,0.0144834793206122
265,44.4518756667356,0.017180926228953
266,45.4104194838374,0.0168005457033737
267,46.4024700978116,0.0137450030024697
268,47.3817415116256,0.00994554546380126
269,48.4442432385343,0.0117577023990452
270,49.4417351930522,0.0130760276827893
271,50.3322242328326,0.0139614561436704
272,51.1310747248202,0.0119776557734776
273,51.9035527995056,0.0098804643205713
274,52.8193560604099,0.0120960473203361
275,53.9429318928524,0.0159174363487619
276,55.1670987943111,0.0160256238562283
277,56.2740942531932,0.0145005132420529
278,57.2899674017651,0.0098822202472393
279,58.173821294777,0.0131598887992135
280,59.0329276856424,0.010932544085813
281,59.8447007444243,0.0139704218331877
282,60.6962192957796,0.0172950837017547
283,61.5584345615649,0.0129145495639271
284,62.3906862292699,0.0165634120127126
285,63.2075347694244,0.0165208062624479
286,63.9789265529252,0.0142750199055787
287,64.6739674352952,0.0237875884184937
288,65.3352980667288,0.0214055421614653
289,65.8244185552209,0.0294368116220048
290,66.3482265632588,0.0257072475856241
291,66.816386395931,0.0192145767193468
292,67.2468591232377,0.0171451299236505
293,67.7562413759631,0.0194609798374939
294,68.1880524101176,0.0146216302374386
295,68.6703251888487,0.0186369778425581
296,69.1724118440732,0.0199037011193847
297,69.5857379050218,0.0186321206862341
298,69.9463708754889,0.0189661981146801
299,70.2985293219294,0.0216679174453305
300,70.6527710722031,0.0203491873418044
301,70.9658523334622,0.0274375952693638
302,71.2312670473683,0.0195681853529345
303,71.5559462329161,0.0189552845577394
304,71.7586960527289,0.0210380306311863
305,72.0092055531849,0.0188226626113148
306,72.2670956811697,0.0184670609045907
307,72.4931886878191,0.0224535466749033
308,72.7794168792442,0.0193428705227207
309,72.9523848155846,0.0229904096939881
310,73.1377278720525,0.017778180744736
311,73.4227119214316,0.0191477322749219
312,73.6205655445116,0.0196144531959689
313,73.7600524016497,0.0167367751656917
314,73.945092913555,0.0179333137952818
315,74.1448426529375,0.0154151461722726
316,74.3019633905641,0.0111365524861021
317,74.4371835000091,0.0162161363740829
318,74.5995923046736,0.0159359560252808
319,74.734779669012,0.013905710864889
320,74.9023608205461,0.0190245762957189
321,75.0619109628556,0.0218086535899586
322,75.2287388767828,0.0162690815658868
323,75.358281358595,0.017046095528179
324,75.5027185762819,0.0127927685816036
325,75.6583970456973,0.0151008837677298
326,75.8014120181961,0.0133718263562691
327,75.9515351317831,0.0131115897867608
328,76.1140722558922,0.0166951990693298
329,76.2426278874703,0.0141127274451167
330,76.3870826938863,0.0170237138999746
331,76.5242489832817,0.024542593791087
332,76.6791712072186,0.0217843681225237
333,76.7887813405261,0.0166389583904955
334,76.889261265931,0.0169541627314666
335,77.0333342058918,0.0187609943975791
336,77.1463304657787,0.016139506633572
337,77.2666183284977,0.0167020419116849
338,77.4136932343553,0.0181818086953584
339,77.5278432774487,0.0175074918498764
340,77.6099446413919,0.0176618133063981
341,77.6928153746913,0.0203015062648344
342,77.7981511850251,0.0241825113867404
343,77.853436985595,0.0168674872371462
344,77.9501747070943,0.0224463942454044
345,78.0447189714006,0.0192754514876637
346,78.0718873764835,0.0266873274304923
347,78.15971367476,0.024915650085266
348,78.1940476509597,0.0234969763388373
349,78.2912945628411,0.0270315563303343
350,78.3461566155027,0.0230047346926965
351,78.4098378740039,0.0303772172986962
352,78.4230969656808,0.0307736935519003
353,78.5230427206,0.0279363251478399
354,78.547359118636,0.0341995963388039
355,78.5843655277305,0.0269405477077938
356,78.5689225058907,0.0334389389676364
357,78.448243737445,0.0278714098183839
358,78.2704948698844,0.0257950642791143
359,78.3834985388754,0.0322932497140493
360,78.5336478833304,0.0423786257635512
361,78.7044759636929,0.0504090518149311
362,79.1058530473187,0.0384483859787481
363,79.2879364746345,0.0356878106627929
364,79.2158878265618,0.0251430568885469
365,79.2876753105607,0.0248366487835955
366,79.4242944095249,0.0304092656506226
367,79.469304706304,0.027308122792538
368,79.2160617782092,0.0354733821657164
369,79.1318269300459,0.0359239618745255
370,79.2355467801159,0.0271972023277984
371,79.1796272494437,0.0247155001080872
372,79.2104955149492,0.0280361308912511
373,79.2379827423226,0.0340817940135326
374,79.2079734306784,0.0298047092659997
375,79.2676552924824,0.0317247733390646
376,79.3537772516216,0.0420592152324004
377,79.3976142994198,0.0290951254248313
378,79.2976001501402,0.0321005938701009
379,79.3802683184782,0.0247818077065355
380,79.6063241718198,0.0255196932594511
381,79.83214724933,0.0287926980338093
382,79.547348051334,0.0243763717238412
383,79.7372761647962,0.0327809233718454
384,79.8327608181748,0.0280621141418887
385,79.8801074882856,0.0273195134283008
386,79.8997558274201,0.0248190281629856
387,79.7071652739212,0.0262574561026309
388,79.7285218263189,0.0209738489225086
389,80.4003060401061,0.0337127143411728
390,80.5043626468179,0.0344754365072269
391,80.1636335527836,0.0263049530542198
392,79.8409129660695,0.0211888271389342
393,79.9021244803694,0.0200832785905377
394,80.6461772516687,0.0254754452869531
395,80.5551147387115,0.0238404606465886
396,80.6791231383543,0.0190000256275302
397,80.3291869204296,0.0195652694535971
398,80.0159024383732,0.0208701133874223
399,80.5536996128484,0.0256611273304113
400,81.1997997746065,0.0260030235495444
401,81.1228072601564,0.0171615350954794
402,80.9395315455783,0.0212344834886646
403,80.8581691800441,0.027044793610703
404,80.6877160789659,0.020855781255599
405,80.4043668464662,0.0268123252922581
406,81.0555876934304,0.0224152444809003
407,81.7401690610141,0.0219659111572725
408,81.3086405111119,0.0315866690454379
409,81.1010772262337,0.0282357365272374
410,81.234309696343,0.0274873081727094
411,81.3719600530348,0.0286689439546194
412,80.9032814331222,0.0225158570483087
413,80.8292324427611,0.0210919608565156
414,81.6710031850257,0.0254489733456656
415,81.8811938097845,0.029208091407412
416,81.7614419348207,0.031555880385623
417,81.6826612914885,0.0310239732087871
418,81.8202628524379,0.0270366711618083
419,81.8201730172643,0.0205696934122679
420,81.4586689332783,0.0219176536021969
421,80.8893365737833,0.0161581282224382
422,81.3158719848001,0.0194276868651193
423,81.6429408771781,0.0190147830180997
424,82.6132837039749,0.0212840253778429
425,82.6757129579385,0.0247120056850905
426,82.903142927753,0.0225265996190417
427,81.482910293935,0.0299876695019262
428,82.2420446180821,0.025136691401843
429,82.1595533503539,0.0297625429580247
430,81.3392670824217,0.0313954822527112
431,82.3446875104651,0.0252089528747717
432,83.6542890397884,0.0227087947844276
433,82.4324329161722,0.0313155465885903
434,81.6948592455224,0.0358547875154394
435,83.0260255275708,0.0356533483666343
436,82.3581598543201,0.036864464021093
437,82.289645603826,0.0346965071200814
438,82.4324329161722,0.0358436571350676
439,82.4298987490438,0.0379429040953267
440,82.9405623080344,0.0422997910308027
441,81.7424127738916,0.0293502256301547
442,82.4403074325896,0.0258597116313298
443,82.8668322341171,0.0245879948845566
444,82.8767501176244,0.0360037553892783
445,82.9972242486563,0.0418702744817465
446,82.9976798872936,0.0326919635108521
447,83.2367789258631,0.0252204660704247
448,83.1683555811487,0.0197794239799624
449,83.0141756902923,0.0270966148412505
450,83.1593158505939,0.0404176945767513
451,83.3810265866517,0.0382529724419793
452,83.3366372016241,0.056491091785061
453,83.2517683170813,0.0618678580947163
454,83.2970270580317,0.0482752512202437
455,83.0327715750154,0.0488761319830887
456,83.0444417079184,0.0489074858008234
457,82.7264714625824,0.0385068640132227
458,82.3699160487858,0.0373545850562217
459,82.7118490924905,0.0345447276047102
460,83.6750494683838,0.0380450908243266
461,83.4946245055847,0.036341617403241
462,83.9663292130428,0.0396676420172714
463,82.6904197302048,0.0427653691535762
464,82.1423254766446,0.037102594662076
465,82.4653841794012,0.0443814838007029
466,83.2909911379469,0.0447720474789174
467,83.9753644675019,0.0466477300047302
468,83.3703160560923,0.0499400200094089
469,84.0966969233708,0.0728430875022217
470,84.4910566436372,0.0572195152000769
471,83.7684431984888,0.0798395769048708
472,82.8783880474416,0.0559275587629888
473,82.3140438781755,0.0465547880327214
474,83.2007788568184,0.042521301589373
475,82.9254468515855,0.0530912899153612
476,83.0769991055604,0.0631313704199893
477,83.6268307239951,0.0529742518477136
478,82.9376482707504,0.0453324485771336
479,83.440004911824,0.0430962054141075
480,82.8030767696007,0.0449841220530286
481,83.0587580950659,0.0641629525644868
482,83.2026972493415,0.0753742062597159
483,83.1299206931491,0.063348579156272
484,82.972532375977,0.0406287208773684
485,79.83135838203,0.0235010626099704
486,80.0964172851569,0.0252950552250004
487,85.5580721378176,0.0431875104728925
488,88.9689162417878,0.0531085618405585
489,84.2822169015271,0.0456490823338061
490,83.2171322877169,0.0443492386343099
491,83.7131849119095,0.0487706959901194
492,83.7704666562827,0.0437289816605681
493,83.0164543737982,0.0420265189877972
494,83.5674450826579,0.0441181018810289
495,84.1489745787064,0.0576490861493343
496,83.0532865729585,0.0612996517238246
497,83.4449521946094,0.0612662372790239
498,83.707854094464,0.0480275656117181
499,83.0123527885212,0.0703660692369082
500,84.0589405287566,0.0535185961460589
501,83.3854210485076,0.0506555963921905
502,83.345970738384,0.0493124670799948
503,83.5060844922253,0.0613922366619835
504,84.2343881530721,0.063279776444323
505,83.7422346398889,0.0670534031445241
506,83.8036767413748,0.0481796422392507
507,84.3515566298415,0.065243727868019
508,83.7486710699559,0.0767534365342242
509,84.0069032791095,0.0640795731553048
510,83.7458205898982,0.0564985509991947
511,83.6147115260662,0.0617151186480888
512,84.0462973116425,0.064350383777665
513,84.1748483299329,0.0660096915211422
514,84.1699501881095,0.0759163877852215
515,84.3428513181867,0.056902539416055
516,83.99620457717,0.0542040522040317
517,84.2055375155092,0.0582094177404952
518,84.140844470995,0.0705371623264298
519,83.6192101142494,0.0656808231605424
520,84.3993592401877,0.0604790916973468
521,84.4503414616928,0.0643996692514956
522,84.4615616826368,0.0723306481914301
523,84.1830741527067,0.0767839324265248
524,84.0686318731032,0.076768386809211
525,84.0795244315907,0.0894181318550472
526,83.9676199041586,0.077324316888946
527,84.0642014056258,0.0668866404967568
528,84.0607864129705,0.0582639507848185
529,83.8074493563528,0.0536193505587323
530,83.9934378932589,0.0758810216376971
531,84.5058079864067,0.0595923664196241
532,84.197401942933,0.0743452730342901
533,83.3312388683035,0.0495219550558551
534,83.5014086277284,0.0539782648189786
535,83.8554960344685,0.0639216591874708
536,84.6645244294595,0.0691228353984275
537,84.5686459968869,0.044248637188116
538,83.5662522949436,0.0490461887863812
539,83.7250426024388,0.0728207156957266
540,84.3876840104806,0.0784429922642345
541,84.1688412144396,0.0720572176058492
542,83.5646925213135,0.0473631860592704
543,84.3496117482342,0.0473298906177811
544,84.2036884527173,0.0792874939250898
545,84.2911010508947,0.0681636703716625
546,84.9104762946609,0.0677983398286208
547,83.9527781540842,0.0593147875769098
548,83.327213220243,0.0574788937701034
549,84.7148297023128,0.0606983110909422
550,84.9495478753,0.0568179168475679
551,84.5572258696312,0.0576914097596256
552,84.031718444363,0.0559295276096168
553,84.0178800876444,0.0404471955143389
554,84.8530671718111,0.049783309089812
555,84.3622079671945,0.0416607769759222
556,84.2638963006097,0.0434626973714664
557,84.8393730050322,0.0590380471564512
558,84.5670675134641,0.0587042219124739
559,84.9707230416538,0.0433600736775283
560,83.962180697399,0.0391628604491435
561,84.1173824291018,0.0399137712182663
562,84.9452575154871,0.0296645601664434
563,84.7565099270315,0.0377521853228843
564,84.3595218509622,0.0511535177108439
565,84.6008720683409,0.0365333024024904
566,84.8294065319725,0.0429265337828931
567,83.3473434054829,0.0383660816814698
568,83.6685268318501,0.029140613501437
569,83.0374211970406,0.0305467080783949
570,82.7409147253978,0.0283241640776529
571,83.3737029981988,0.0287327419343862
572,84.1313295472074,0.0213114797669626
573,84.3628563528922,0.0155902355744003
574,83.0942405420389,0.0155124626358393
575,84.2622309889222,0.0116436587174169
576,84.4077923550926,0.01834708337916
577,83.7143797968751,0.016054349479773
578,83.430386034939,0.014654773673772
579,85.6106002581876,0.0113576831745641
580,84.2204239501236,0.0118027644354911
581,83.6401455038856,0.0181783701910009
582,83.5672615757476,0.0223475461588224
583,88.3450561237955,0.0298410825574513
584,85.9954397980054,0.0258819382683656
585,82.9401980477747,0.0197053931180626
586,86.1314166946224,0.0240293810712207
587,85.4060259262502,0.0256662005953666
588,84.4343019165926,0.0179948660304402
589,86.6895649739318,0.0273235604579453
590,86.4495644897002,0.0282562459647446
591,85.8452554207834,0.0224804383511276
592,84.6793060580706,0.0250830896191908
593,83.1777615963531,0.0200059571235772
594,85.3916799784259,0.0196025067278073
595,84.9480555516574,0.023970782329931
596,86.2654301077343,0.0299799169404776
597,85.8855115265658,0.0316467322338178
598,84.9557972653035,0.0295542335258623
599,83.9988791249106,0.0196086504079248
600,85.0019823794265,0.0217441659729901
601,85.0241974928998,0.0180526472800876
602,85.4544261116373,0.0188997020476825
603,84.5200979057038,0.0257200385699359
604,85.6467966971004,0.0287401440682595
605,85.9270129766293,0.0288212071722638
606,84.8891297324988,0.0291502853675364
607,85.4060259262502,0.0235231922635011
608,85.5091438201909,0.0238528201109955
609,85.8679737599867,0.0367762331849708
610,84.4871604924767,0.0281658662293074
611,85.4488905933902,0.0312490118738226
612,85.7349543283562,0.0366815972930326
613,85.2852390010731,0.0290952635091391
614,85.1154523187754,0.033301350985328
615,85.4179358311637,0.039778243822935
616,86.1342538020297,0.0363647956899292
617,86.0929358366261,0.0379323187240474
618,85.7296830205546,0.0440211360660908
619,85.9977058932813,0.0339850569527553
620,84.8268918125545,0.0458511049183095
621,86.5098584373308,0.0493713229733992
622,83.6683431029729,0.0453300011040968
623,83.155298507961,0.0428084067363059
624,84.4536795534744,0.0529097711425165
625,86.8749862153607,0.0553457182527274
626,88.0409064818089,0.0573836587397426
627,87.2156047095776,0.0485535377047107
628,87.073518337244,0.055131071220187
629,86.675764753123,0.0662543802195344
630,86.4372260299763,0.0520519575239875
631,86.0248092430947,0.0499019392790465
632,85.183419920186,0.0593942214631705
633,85.5723520848969,0.0589006306200978
634,85.9039017408706,0.0596751658262688
635,85.8020035065722,0.0892899563472252
636,85.1860387396426,0.088443456632288
637,86.1367127040417,0.0898344293325391
638,85.7295888930036,0.0961583240256461
639,86.0864137593894,0.0872596733106086
640,86.1146796629763,0.12415604597065
641,86.086886357077,0.15428966495577
642,86.4060081029367,0.150748923829967
643,85.5844731201908,0.128513279991549
644,85.2363731232227,0.0926665563282229
645,85.6027048864823,0.130079649387908
646,85.7470983957099,0.160900910467865
647,86.0261315762022,0.242153852369849
648,85.5143076763972,0.188148452989086
649,85.6174623035812,0.113504996033391
650,87.3416188516609,0.179241116036354
651,86.6486465834044,0.207916258711692
652,85.5367506008743,0.147344237212863
653,85.841202573115,0.104030193900193
654,86.8230168876062,0.126588742375157
655,81.8963886782055,0.0565170990866379
656,78.6804564766402,0.0144471890596123
657,98.6014117115454,0.0569444650512735
658,107.6154575887,0.148952407954988
659,87.9216058265221,0.10966017973899
660,87.770659460654,0.189436861406922
661,86.3386765232383,0.149789117344545
662,86.1481569792358,0.158945908362856
663,86.0913289021596,0.186436017144865
664,85.9451289844959,0.127522251787563
665,85.5364688540256,0.11077120676431
666,86.3856134216821,0.162503463466941
667,86.2722499170913,0.164539175578079
668,85.5778016402855,0.17017032471064
669,85.9193714311563,0.12549834098229
670,85.9458839010378,0.0907412412379746
671,85.7305301731641,0.0661915697640053
672,85.3105254468201,0.076872110266962
673,86.6963231247563,0.0931335058483954
674,86.4407375661472,0.119908829011122
675,86.2367359843507,0.161354537063722
676,85.8619400878144,0.0937191277924796
677,86.4183421064656,0.127261392064087
