Wavelength (nm),Transmittance(%),Std.Dev.
190,91.5986909120696,0.0276035408967182
191,92.5463166515394,0.023361034196324
192,93.4194974566965,0.0229272468181807
193,94.1677568906455,0.0267520340777053
194,94.7201412547169,0.0301961940352914
195,95.2367547894609,0.0320777309153119
196,95.5567401834371,0.0313012460836153
197,95.8633798149147,0.0332402659353358
198,96.1474593721807,0.0245344746286089
199,96.3249737273018,0.0237578375611146
200,96.5087495434905,0.0306017250013983
201,96.6220900287971,0.0253838526758804
202,96.7354574103454,0.0282242900201592
203,96.8378994835324,0.0300217894787053
204,96.9171432386109,0.0326873979322254
205,97.0090194231097,0.0266866902150622
206,97.0660199981078,0.0226475043616008
207,97.1416106842134,0.027059473383773
208,97.21459176156,0.0225092262786955
209,97.2617812089011,0.024333450970858
210,97.3444713072123,0.0247274575726464
211,97.381565786508,0.023523566047278
212,97.4213484785215,0.0300591354104055
213,97.4709926798144,0.0228860723351854
214,97.4651068087343,0.0222771358928427
215,97.4768789063394,0.0252666405222105
216,97.4447765341179,0.0222436893408602
217,97.4171769499244,0.0252502592393817
218,97.3658496851633,0.0250939042972522
219,97.3624288292121,0.0228595818881942
220,97.3097414540002,0.0211455450569458
221,97.2739559582796,0.0239771536428531
222,97.2861322316331,0.0292769660707845
223,97.2468318469855,0.0212029679748634
224,97.2211029702507,0.0214139553966175
225,97.2045589494521,0.0255573844325213
226,97.1986891672057,0.0261318259347795
227,97.1946338883381,0.0241115950523872
228,97.1784144647216,0.0237406868678639
229,97.1656115685098,0.0205326773143181
230,97.1660383045404,0.0235875939682679
231,97.1897250929213,0.0197099347399898
232,97.1924995989979,0.0192000914424256
233,97.1978354102255,0.0194638885458585
234,97.2435219418692,0.0165726477548213
235,97.2662664655901,0.0193583611736392
236,97.3423337276041,0.0245386417306022
237,97.3879812507483,0.0186912950859228
238,97.4290502313916,0.0196318076437664
239,97.4942185845595,0.0233470072529375
240,97.5379025529339,0.0254754206911758
241,97.575820678204,0.0234151272075547
242,97.6132176666468,0.0236072747034812
243,97.6483774715002,0.0233898218678581
244,97.6681068090829,0.0213401323688505
245,97.692559561845,0.0297331516684108
246,97.7126196787513,0.0227685633073505
247,97.7091866393682,0.0209375886979845
248,97.6921305134262,0.0217733668487387
249,97.7115468409869,0.0240840600789039
250,97.7202371656016,0.0256840059089798
251,97.7222757487177,0.024269542919504
252,97.6864457997644,0.023765291384596
253,97.6824774221512,0.0225493086161516
254,97.7128342477177,0.0340320553589428
255,97.7147653896182,0.0266403968537041
256,97.7183059155621,0.0272518145973713
257,97.7085429579119,0.0291114214305486
258,97.7141216714108,0.030256938691435
259,97.7290355654517,0.0371340689120597
260,97.7163747036899,0.0312561400482378
261,97.7727173972206,0.0234937902999958
262,97.7503910738706,0.028439524182456
263,97.761553598198,0.0300270520733116
264,97.7871034023993,0.0283479157214152
265,97.7712145038689,0.0266938035835318
266,97.8002029494679,0.0307813359257217
267,97.7822720452109,0.0262030842605244
268,97.8202851697866,0.0319005544225813
269,97.857990739607,0.0257229048440411
270,97.842412603063,0.0303818693955056
271,97.8298444662446,0.031735428366469
272,97.8553046770535,0.0269006243816394
273,97.8879722009982,0.0202347912453146
274,97.9025901501015,0.0226374119271026
275,97.887757247444,0.0236086860876662
276,97.9236610344701,0.0266036585550605
277,97.9336605404243,0.020256225810515
278,97.9248437184917,0.021692413832401
279,97.9463495553585,0.0249712867342823
280,97.905170014773,0.0213096653638354
281,97.9288219423027,0.0257890858391044
282,97.9391445739741,0.0199722252658335
283,97.9401123764781,0.0210536363594776
284,97.9166727386426,0.0286142062698389
285,97.9295745974201,0.0341278746434068
286,97.9274241695746,0.0300580054777969
287,97.9264564924501,0.0234450922790431
288,97.9202205803509,0.028592613362657
289,97.9648483524967,0.029744541209173
290,97.9143075822514,0.025804977744175
291,97.9545230116875,0.0293349307144907
292,97.8962482717592,0.0278701844876515
293,97.8746459731845,0.0255520768321228
294,97.8995803939053,0.0277048162375993
295,97.8837806918298,0.0328183149069309
296,97.9150601258152,0.0323164305675081
297,97.853478196631,0.0340864584595533
298,97.8714221583743,0.0233529342238809
299,97.8746459731845,0.0275455779395189
300,97.9208656562907,0.0241327795421244
301,97.9124800005329,0.022317333936431
302,97.9248437184917,0.0303762758901514
303,97.9648483524967,0.0282532236322578
304,97.9436610674812,0.0312171647689421
305,97.9675374219507,0.0342419446718914
306,97.9782944379186,0.0369661164408512
307,97.8914115220617,0.0264127052740168
308,97.9188229303931,0.028766313657126
309,97.879159492319,0.0277515236618642
310,97.9297896428018,0.0305697765071433
311,97.9734536345747,0.0230316989756684
312,97.9546305617117,0.0225265440083084
313,97.9770035336408,0.0280487356745755
314,98.007129065509,0.021410422037418
315,98.0248859484286,0.0167915711344694
316,98.0516887900494,0.0197490540315736
317,98.0406007821747,0.0234432762916826
318,98.0973458358979,0.0203357700046713
319,98.0749453838984,0.0246406391012927
320,98.1151190642471,0.0276586076893966
321,98.1009002239842,0.0301612987290528
322,98.1188895569445,0.0286498143440729
323,98.1295554494529,0.0265745510783468
324,98.1692125693941,0.0252457913670745
325,98.141515556167,0.0254398315139286
326,98.1615600840181,0.0200703179668751
327,98.1665179642444,0.0220767862728237
328,98.1852739502517,0.0219363201016066
329,98.1626378627666,0.0250700219523733
330,98.2279733469656,0.0187770887773418
331,98.2351995762988,0.0226353090167942
332,98.2117971487385,0.0213780364620527
333,98.2252771289162,0.0163009955466168
334,98.2442600775555,0.020140447465592
335,98.2394061336751,0.023612829865336
336,98.245878112144,0.0273781272034756
337,98.2527820258012,0.0267631734406682
338,98.2306696390245,0.0197680460157868
339,98.2591470009806,0.0274539907570908
340,98.2587154642101,0.0293666389559254
341,98.2649729328819,0.0231349732715145
342,98.3179616102676,0.0265580881244801
343,98.3278934203817,0.0344688114643292
344,98.3242228519472,0.0257460628436995
345,98.3233592086996,0.0291949737762665
346,98.2859059824859,0.0320240480676366
347,98.3071673023136,0.0291869727949629
348,98.3270297448932,0.0371115114686312
349,98.3524033742599,0.0330630182664798
350,98.307706989564,0.0247189222465263
351,98.3423611126133,0.0245207301441636
352,98.3456004398166,0.0282394391918397
353,98.3037133740687,0.0326308811184252
354,98.3566149504532,0.0323657405815073
355,98.3180695593324,0.0324745702144482
356,98.3484079430354,0.0412091302846187
357,98.3695747776249,0.0363624807693237
358,98.3274615816892,0.0215940462944742
359,98.3779995809914,0.0295400577838334
360,98.3732470391046,0.0538152875829304
361,98.3656866501821,0.0447579507933337
362,98.3704388268164,0.0365694540892309
363,98.3678467020103,0.0482862651455309
364,98.3500276928879,0.0392635111592979
365,98.3481919784039,0.033148951694359
366,98.3803759380346,0.0345027685041902
367,98.4140831816819,0.0437598220280939
368,98.4801266576656,0.0394887350880422
369,98.385560916286,0.0331742125633773
370,98.441100525241,0.046054527083512
371,98.3703308202525,0.0318456222114585
372,98.3785396570972,0.0320600537524121
373,98.3542391673515,0.0340286515661713
374,98.3747591866186,0.0396541488456863
375,98.3817801759959,0.0448818934195869
376,98.3711948760848,0.0343130687195318
377,98.3970120446654,0.0421023702915889
378,98.45839551743,0.0440116775714823
379,98.5650429858839,0.0309093518699722
380,98.6308628893852,0.031936575153347
381,98.4897504358452,0.0370588752273849
382,98.5572514329445,0.0381482820924377
383,98.5968648870655,0.0423365152117779
384,98.5397226907185,0.0242650453899086
385,98.5503261251806,0.028725293117734
386,98.5938337872288,0.0195615709111434
387,98.6479745977537,0.0189829346008033
388,98.797340598324,0.0303878142834293
389,98.8532211975652,0.0303631291731978
390,98.683832168619,0.0281419997078595
391,98.5924265225513,0.0337900674410711
392,98.6783064368108,0.0272292327202372
393,98.8921935524912,0.0196048376785369
394,98.8261992536889,0.0237320525629476
395,98.8925192914921,0.0296770787244549
396,98.7110319461352,0.0327208851678081
397,98.723062923658,0.0242147941773005
398,98.8431277999683,0.0173338885913082
399,98.9736617072175,0.0230019053525773
400,98.8004864333698,0.0300961711636367
401,98.7691410342432,0.0237456054346379
402,98.7966897484065,0.0255152988288005
403,98.7845413369324,0.0276208128032659
404,98.754827413135,0.0298224170560733
405,98.8778620986155,0.031647777077654
406,99.0262714500845,0.0278883455761347
407,98.8526785155642,0.0332404106356316
408,98.72208738437,0.0348249459794309
409,98.8735196438612,0.0357368527829228
410,98.8178445656135,0.040397352215088
411,98.7546105560414,0.0308722220915574
412,98.9077216382786,0.0310821426637714
413,99.0848924856464,0.0250479463468584
414,99.0308380767789,0.031445091380131
415,98.9126086031847,0.0326745569869132
416,98.952256241738,0.0413275579647593
417,98.9801820581924,0.0302572675182682
418,98.9467154797125,0.0399142808608412
419,98.8864390070556,0.0273328507622107
420,98.9715970189552,0.0327265331661565
421,99.1068707176302,0.02980344688518
422,99.2787299315656,0.0289252864150039
423,99.458640161899,0.0259679054682032
424,99.1853575350606,0.0374873885931451
425,99.1829617338581,0.0386631934911804
426,99.1555230476425,0.0344885043557051
427,98.8650524056099,0.0338069112174888
428,99.1930898337059,0.0259936601933587
429,98.8181700597177,0.0253788430561724
430,99.0848924856464,0.0369146530435205
431,99.2026743643776,0.0275325220524027
432,99.0113770124188,0.038023765103931
433,98.8761250938282,0.035218239112871
434,99.1037151272233,0.0326493217649657
435,99.0222486438955,0.0319014226826429
436,99.0331214690973,0.0470094142746049
437,98.9277054196816,0.0451560342217422
438,98.9088076096135,0.0424782348268851
439,98.9815948575209,0.0403614208477407
440,98.4906155406241,0.0518479065490745
441,98.5395063059763,0.0358238908440263
442,98.860601968562,0.035328956955235
443,98.7047460726289,0.0259042564294228
444,98.7677312673434,0.045124729739958
445,98.8911077635707,0.0409937352868687
446,98.7635020873753,0.0434457037627299
447,98.8528955880071,0.0517444086965232
448,98.7839990319685,0.0356834038453206
449,98.7913746345656,0.0313270193625035
450,98.9981152383695,0.034180288111775
451,98.9559502554585,0.0454669233735617
452,98.9926805982608,0.0492747423822042
453,99.0777125356077,0.0592020414578611
454,99.0098550792639,0.045189347829833
455,99.1567206096161,0.0357159740992269
456,99.1592246495718,0.0465099183361555
457,99.1381055995154,0.0483174042862335
458,99.319396708856,0.0447402116553402
459,99.3509167372601,0.0338481331455086
460,99.3533165954779,0.0345524801707296
461,99.2227177394169,0.0496031342345729
462,99.1399560581024,0.0538409156711436
463,99.213022340437,0.0475282072548479
464,99.3463353507213,0.0451662438786464
465,99.4085293368945,0.0463439278190171
466,99.4183529985433,0.0422831612603937
467,99.3145986890239,0.0476138414870457
468,99.3376094846077,0.0566736738477991
469,99.3940139251258,0.07701364117204
470,99.1664105066192,0.0788788420931663
471,99.1751213345276,0.0763822163015637
472,99.0373621945135,0.0667199633870223
473,99.3604074243265,0.0737782301817753
474,99.4504503923953,0.0627232345583974
475,99.4751309437196,0.0564875125765724
476,99.3626984156527,0.0660138584876058
477,99.3325924586399,0.0526086403163444
478,99.5202488379202,0.0489779012730445
479,99.3811373643067,0.0503242801097637
480,99.4968680046048,0.0465494811640812
481,99.55445593323,0.0583332905598484
482,99.3733904069824,0.0614283821445142
483,99.2821091096289,0.058118124978966
484,99.4293784859672,0.0642093663649887
485,98.9498660710476,0.0366839651802347
486,100.755268581104,0.0342073026846667
487,100.366730056415,0.0533415223644407
488,99.6264056792973,0.0446014425749455
489,99.4625714908147,0.0580744580345484
490,99.6311093720914,0.0569370375729401
491,99.4268676238928,0.0668270431472061
492,99.3678260638454,0.0581601163675555
493,99.5139114338512,0.0605434346705992
494,99.6750941746432,0.0653005668711336
495,99.4524158755711,0.0625493445106249
496,99.2014762473991,0.0748298568031382
497,99.4103848430656,0.0650788366122191
498,99.381682947444,0.0601581717606279
499,99.6278277025358,0.0460445986403852
500,99.5029858228221,0.0571686119743075
501,99.6062807577234,0.0801580185638909
502,99.5397006324976,0.0696611365785365
503,99.5645126506003,0.0826152306809551
504,99.5155503789723,0.0894182069886447
505,99.5761009975668,0.0674652668696559
506,99.7197553219898,0.0636433993136282
507,99.7037713381752,0.0642971624091282
508,99.5251660673889,0.0818179014643914
509,99.6198427581359,0.0676393863600046
510,99.2857064255684,0.0592188620941036
511,99.4245751530265,0.066181852413037
512,99.640189221112,0.0624731003486311
513,99.5682295206322,0.065979636960704
514,99.7523881189443,0.0668394051380371
515,99.5848478128962,0.0700090240347848
516,99.5679015559304,0.0820933014666765
517,99.4951201256319,0.0698530694502053
518,99.3949961041716,0.0864101334797788
519,99.3530984241536,0.0751687251932153
520,99.3489532600169,0.0750604046851856
521,99.3053304434578,0.0794240054352538
522,99.4123495344084,0.0768482222118861
523,99.2815640731295,0.0608192640008556
524,99.4625714908147,0.0896264482126186
525,99.3860477203697,0.0772520119694579
526,99.1983176447257,0.0784422216100631
527,99.4175889011554,0.0940276627757732
528,99.3381548287855,0.0897882133348501
529,99.4384399503086,0.0756945295596104
530,99.2884317516916,0.09650785859239
531,99.2980254947745,0.085219399181309
532,99.3595346796206,0.0847929629239184
533,99.198535476164,0.0982205908175667
534,99.4225010582647,0.112380411230307
535,99.4233743560486,0.0681678904715034
536,99.428068463061,0.0552160614186318
537,99.3233225338576,0.0659675101256391
538,99.2500660475213,0.0808266863870929
539,99.4749125049015,0.0942845279302195
540,99.379609747456,0.0724652732180773
541,99.3681533695226,0.0528927925661949
542,99.4674858704839,0.0559246325928452
543,99.4407327408609,0.0656021589918467
544,99.3748088187929,0.0616721886645171
545,99.447720619091,0.0785836285267216
546,99.3132901783887,0.0683489667229171
547,99.2187958908914,0.0581235468500417
548,99.3477533763599,0.0717462381086106
549,99.344044736676,0.0547050844756048
550,99.4243568252245,0.0696872029961381
551,99.4339637020654,0.0512687112979384
552,99.3593164946419,0.0558723362980609
553,99.3315018343503,0.0839365239912952
554,99.4312343812974,0.0552221362606733
555,99.0641155711596,0.0529199740324224
556,99.3844109080585,0.052532828402446
557,99.2708819617724,0.070630281959058
558,99.4230468684807,0.0708799086293682
559,99.3289934439274,0.079856269750079
560,99.1014301072372,0.0646191205572315
561,99.4046001440333,0.0457033068303934
562,99.3453536525205,0.0522741964953543
563,99.1709835958689,0.0553670098916104
564,98.9484537245954,0.0509702368357304
565,99.2878866804823,0.0730246964206432
566,99.1213441952649,0.0512306659482915
567,99.2584572783454,0.0499587769701238
568,99.1700036304194,0.0336275144464721
569,98.6547984485528,0.0250748167462581
570,98.7271819735974,0.030973098784104
571,98.3691427558753,0.0327674321138126
572,98.3096498881973,0.0273835624582451
573,98.414947621822,0.0211148283922423
574,98.6320541147167,0.0256457617974287
575,98.3886936397343,0.0215458366738478
576,98.1147958859008,0.0247389983937652
577,98.1985346540133,0.0198121038142805
578,98.8341205842638,0.0227810670220985
579,98.6250152646069,0.0226807118146251
580,98.4509366794437,0.0226262240951254
581,98.0758068451527,0.0185908616083131
582,98.9386764943281,0.0204917599183262
583,98.9768131565553,0.0273461730540774
584,98.4459644347075,0.0248638853293728
585,98.9355262592722,0.0191131166367102
586,99.0843485318221,0.0192029811318103
587,98.4307249882024,0.0152167905077778
588,98.8584310963595,0.0192753732739565
589,99.3437175104094,0.0285085210367608
590,99.1346224770486,0.0336162219343939
591,99.0268150850769,0.0270894665807757
592,98.5452406621927,0.0228327138755089
593,98.7008446973021,0.0262294235705379
594,98.7347701470587,0.0238455192548238
595,98.6121300560277,0.0239469642540631
596,98.7461535008156,0.0304918115986191
597,98.2056508919102,0.0303877213901551
598,98.0113258566132,0.0239910345656236
599,98.4725580546045,0.0294726227966792
600,98.393122832745,0.031203724911682
601,98.5097579279105,0.0352181974588036
602,98.3024181822627,0.0354247029109146
603,98.7214370302001,0.0263176144347726
604,98.8682003966872,0.0269579227992896
605,98.7094062508183,0.0266550150371784
606,98.9250986105396,0.0331887808666559
607,98.7254476158343,0.0342189450964386
608,98.7988592648058,0.0335865567753206
609,98.7880121592012,0.0407874933715505
610,98.7436598920292,0.0477711761775406
611,98.9968108975337,0.0418754078493641
612,99.0917465596963,0.0336713616475693
613,99.0710769838272,0.0281878622077242
614,98.9521475963631,0.0242792503389907
615,98.8363994407909,0.0366348281920175
616,99.0085505837509,0.042495495392417
617,99.2486494162086,0.0558917488111035
618,99.2389514833538,0.0572363761337099
619,98.9745310625296,0.04251646133517
620,99.1555230476425,0.0551971382881112
621,99.2688110732023,0.0420684736340639
622,98.9819208909988,0.0519076005565167
623,99.2147652636616,0.0496001156420694
624,99.3585528509896,0.0601346718478425
625,99.1874266826712,0.0567938495462489
626,99.4555825690606,0.0703750823333917
627,99.2503929653112,0.0652192733392165
628,99.2814550661887,0.0581863986541164
629,99.1550875741472,0.0659679812670316
630,99.4618070535777,0.0657729063754756
631,99.4157332605197,0.0836985135202482
632,99.5360941138496,0.078077970173304
633,99.457548153666,0.0609583780140466
634,99.562654267616,0.0687142407856117
635,99.4667213954766,0.0929948592966961
636,99.1752302247184,0.061519040545522
637,99.5780689640311,0.0814045268816713
638,99.4195537348751,0.0934947555553365
639,99.8020148068829,0.0820969933391009
640,99.630890590758,0.138723085822811
641,99.7610408859178,0.148759163240571
642,99.6341723612029,0.184210913361654
643,99.3594255870714,0.174329661429657
644,99.7224925624644,0.138210933905229
645,99.9843004312199,0.182020161718671
646,99.8140691625181,0.205967038626929
647,99.9844102098559,0.218398584411367
648,99.4402960147752,0.18105930627071
649,99.3409906667709,0.148658712647522
650,99.7253393722617,0.174004239664593
651,99.5387170235433,0.145091472572021
652,99.6267338367047,0.209056273838803
653,99.5524884334312,0.158661294105815
654,99.8977226410541,0.178253499790513
655,97.4068023841694,0.080584468005349
656,100.592780896048,0.0132012640224808
657,101.551692122308,0.0278293475721711
658,100.182097258574,0.116883202659424
659,100.063042660329,0.164242893995588
660,100.162409954292,0.209357476258616
661,99.5312856255846,0.24939872178416
662,99.7533738393263,0.223432775209507
663,99.9353511723752,0.175673807194489
664,99.8279882748976,0.128832143272587
665,99.5377334243086,0.133514301180877
666,100.284115225837,0.16802545168966
667,99.8455269276377,0.142181092693732
668,99.8676738775743,0.159757164422858
669,99.4214094468218,0.10702277090458
670,99.6643697217658,0.0904756712304996
671,99.329756860394,0.086298304618525
672,99.12700357329,0.0859326827919806
673,99.5088855037889,0.105816347095737
674,99.546367571607,0.105626642499477
675,99.5789436282774,0.116898334617145
676,99.5004731019624,0.0700778984241747
677,99.4998176199998,0.0951025675409643
678,99.3007511590479,0.0779128940912408
679,99.3645530663686,0.0858706853032248
